Time (s),Channel 1 (V),Channel 2 (V)
-3.192e-05,-1.899461774287787,-0.3066858751256152
-3.19e-05,-1.889552317567449,-0.3106806345274009
-3.187999999999999e-05,-1.880303491295129,-0.3160069803964513
-3.186e-05,-1.8703940345748,-0.3219991194991244
-3.184e-05,-1.860154262630446,-0.3266596721345438
-3.182e-05,-1.851566066806153,-0.3313202247699605
-3.179999999999999e-05,-1.84033534918977,-0.3353149841717463
-3.178e-05,-1.829434946797404,-0.3409742266576068
-3.176e-05,-1.820516435749095,-0.3466334691434725
-3.174e-05,-1.809616033356723,-0.3509611251620737
-3.171999999999999e-05,-1.797724685292317,-0.3549558845638594
-3.169999999999999e-05,-1.785833337227906,-0.3596164371992785
-3.168e-05,-1.773611673939495,-0.3649427830683237
-3.166e-05,-1.76172032587509,-0.368604645853294
-3.164e-05,-1.748838032138651,-0.3742638883391571
-3.161999999999999e-05,-1.736946684074239,-0.379257337591391
-3.16e-05,-1.723073444665778,-0.3829192003763578
-3.158e-05,-1.710521466153344,-0.3862481665445143
-3.156e-05,-1.696648226744871,-0.3915745124135619
-3.153999999999999e-05,-1.682444672112381,-0.3955692718153495
-3.152e-05,-1.670223008823975,-0.3995640312171316
-3.15e-05,-1.654698193295441,-0.4032258940021037
-3.148e-05,-1.6388430625429,-0.4068877567870739
-3.145999999999999e-05,-1.624969823134427,-0.4112154128056751
-3.144e-05,-1.608784377157882,-0.4145443789738284
-3.142e-05,-1.594580822525391,-0.4185391383756156
-3.14e-05,-1.580377267892906,-0.4215352079269549
-3.137999999999999e-05,-1.563531191468332,-0.4265286571791871
-3.135999999999999e-05,-1.546024484595727,-0.4285260368800819
-3.134e-05,-1.529508723395172,-0.4328536928986812
-3.132e-05,-1.514644538314665,-0.435516865833205
-3.13e-05,-1.49779846189009,-0.4395116252349907
-3.127999999999999e-05,-1.479961439793474,-0.4435063846367777
-3.126e-05,-1.46146378724886,-0.4461695575712991
-3.124e-05,-1.445938971720322,-0.449498523739455
-3.122e-05,-1.427771634399703,-0.4511630068235324
-3.119999999999999e-05,-1.409934612303087,-0.45582355945895
-3.118e-05,-1.393418851102539,-0.4578209391598411
-3.116e-05,-1.374260568109878,-0.4611499053279968
-3.114e-05,-1.351799132877112,-0.4644788714961515
-3.111999999999999e-05,-1.336934947796605,-0.4658104579634135
-3.11e-05,-1.316785719131927,-0.4698052173651974
-3.108e-05,-1.296966805691242,-0.472468390299723
-3.106e-05,-1.275826631354521,-0.4747986666174314
-3.103999999999999e-05,-1.257328978809891,-0.4767960463183242
-3.101999999999999e-05,-1.238170695817228,-0.4791263226360334
-3.1e-05,-1.217691151928539,-0.4811237023369254
-3.098e-05,-1.198532868935886,-0.4837868752714493
-3.095999999999999e-05,-1.176732064151143,-0.4854513583555266
-3.093999999999999e-05,-1.157904096382491,-0.4867829448227901
-3.092e-05,-1.136433606821768,-0.4901119109909433
-3.09e-05,-1.114963117261036,-0.4927750839254671
-3.088e-05,-1.093162312476293,-0.4937737737759136
-3.085999999999999e-05,-1.071361507691539,-0.4954382568599912
-3.084e-05,-1.049560702906816,-0.4961040500936216
-3.082e-05,-1.02709926767404,-0.4984343264113302
-3.08e-05,-1.006619723785342,-0.5000988094954076
-3.077999999999999e-05,-0.9858098646726322,-0.5020961891963005
-3.076e-05,-0.9643393751119098,-0.5030948790467464
-3.074e-05,-0.9408869942071004,-0.5040935688971934
-3.072e-05,-0.9207377655424133,-0.5054251553644553
-3.069999999999999e-05,-0.8959641237415685,-0.5064238452149017
-3.067999999999999e-05,-0.8738330037328029,-0.5077554316821637
-3.066e-05,-0.8497199923799917,-0.5080883282989791
-3.064e-05,-0.8259372962511807,-0.50875412153261
-3.061999999999999e-05,-0.8034758610184148,-0.5107515012335029
-3.059999999999999e-05,-0.7810144257856375,-0.5110843978503188
-3.058e-05,-0.7559104687607929,-0.5120830877007648
-3.056e-05,-0.7360915553201172,-0.5130817775512113
-3.054e-05,-0.7086753917271823,-0.5127488809343957
-3.051999999999999e-05,-0.6858836412703948,-0.5124159843175811
-3.05e-05,-0.6630918908136383,-0.5140804674016569
-3.048e-05,-0.6386485642367945,-0.5134146741680268
-3.046e-05,-0.6165174442280398,-0.5140804674016577
-3.043999999999999e-05,-0.59042254153115,-0.5137475707848422
-3.042e-05,-0.5646579540582832,-0.5137475707848422
-3.04e-05,-0.5408752579294606,-0.5140804674016577
-3.038e-05,-0.5164319313526271,-0.5127488809343957
-3.035999999999999e-05,-0.4946311265678837,-0.5140804674016577
-3.034e-05,-0.4678755934229835,-0.5127488809343963
-3.032e-05,-0.4434322668461379,-0.5130817775512113
-3.03e-05,-0.4183283098212819,-0.5127488809343957
-3.027999999999999e-05,-0.3935546680204371,-0.5104186046166874
-3.025999999999999e-05,-0.3701022871156255,-0.5110843978503179
-3.024e-05,-0.3440073844187477,-0.510085707999872
-3.022e-05,-0.3198943730659254,-0.5090870181494255
-3.02e-05,-0.2937994703690356,-0.5090870181494255
-3.017999999999999e-05,-0.2700167742402135,-0.5070896384485322
-3.016e-05,-0.2455734476634023,-0.5060909485980867
-3.014e-05,-0.2207998058625464,-0.5057580519812708
-3.012e-05,-0.1940442727176341,-0.5034277756635624
-3.009999999999999e-05,-0.1689403156927667,-0.5034277756635619
-3.008e-05,-0.1438363586679335,-0.5020961891963011
-3.006e-05,-0.1184020864190548,-0.501763292579485
-3.004e-05,-0.0942890750662326,-0.4987672230281457
-3.001999999999999e-05,-0.06786385714533154,-0.4971027399440683
-3e-05,-0.04408116101653139,-0.4957711534768071
-2.998e-05,-0.01798625831963079,-0.4931079805422826
-2.996e-05,0.007448013929236486,-0.4911106008413897
-2.993999999999999e-05,0.0325519709540925,-0.4917763940750207
-2.991999999999999e-05,0.05798624320297163,-0.4877816346732342
-2.99e-05,0.08408114589984957,-0.4861171515891576
-2.988e-05,0.1085244724766831,-0.4841197718882647
-2.986e-05,0.1346193751735729,-0.4817894955705564
-2.983999999999999e-05,0.1584020713023957,-0.4791263226360321
-2.982e-05,0.1844969739992617,-0.4781276327855866
-2.98e-05,0.2089403005761071,-0.4744657700006158
-2.978e-05,0.2356958337210194,-0.4714697004492766
-2.975999999999999e-05,0.2584875841778083,-0.4694723207483825
-2.974e-05,0.2842521716506634,-0.4668091478138611
-2.972e-05,0.3093561286755311,-0.4644788714961515
-2.97e-05,0.3351207161484097,-0.4611499053279968
-2.967999999999999e-05,0.3608853036212882,-0.4588196290102884
-2.966e-05,0.3840073693020662,-0.4561564560757658
-2.964e-05,0.4084506958789101,-0.4528274899076098
-2.962e-05,0.4325637072317323,-0.4498314203562706
-2.959999999999999e-05,0.4606405012726897,-0.4461695575713003
-2.957999999999999e-05,0.4837625669534893,-0.4431734880199596
-2.956e-05,0.5082058935303116,-0.4401774184686217
-2.954e-05,0.5339704810031902,-0.4368484523004669
-2.952e-05,0.5557712857879336,-0.4331865895154967
-2.949999999999999e-05,0.5821965037088458,-0.4301905199641559
-2.948e-05,0.6069701455096682,-0.4268615537960041
-2.946e-05,0.6300922111904678,-0.4222010011605859
-2.944e-05,0.6528839616472449,-0.4178733451419847
-2.941999999999999e-05,0.6773272882240895,-0.4145443789738284
-2.94e-05,0.7014402995768897,-0.4112154128056766
-2.938e-05,0.7262139413777454,-0.406221963553443
-2.936e-05,0.7509875831785902,-0.4028929973852882
-2.933999999999999e-05,0.7731187031873448,-0.3992311346003179
-2.932e-05,0.7949195079720783,-0.3949034785817186
-2.93e-05,0.8193628345489217,-0.3905758225631155
-2.928e-05,0.8431455306777327,-0.3865810631613298
-2.925999999999999e-05,0.8652766506864873,-0.3825863037595441
-2.923999999999999e-05,0.88971997726333,-0.3779257511241251
-2.922e-05,0.9098692059280078,-0.3729323018718952
-2.92e-05,0.932660956384785,-0.3689375424701095
-2.918e-05,0.9547920763935396,-0.3649427830683237
-2.915999999999999e-05,0.9765928811782931,-0.3596164371992738
-2.914e-05,0.9987240011870275,-0.3546229879470462
-2.912e-05,1.019533860299747,-0.3502953319284428
-2.91e-05,1.042655925980535,-0.3456347792930261
-2.907999999999999e-05,1.063796100317267,-0.3409742266576071
-2.906e-05,1.086918165998034,-0.3359807774053795
-2.904e-05,1.105746133766687,-0.3313202247699605
-2.902e-05,1.126225677655385,-0.3266596721345438
-2.899999999999999e-05,1.147696167216117,-0.3210004296486807
-2.898e-05,1.170818232896895,-0.3160069803964508
-2.896e-05,1.189976515889559,-0.3106806345274009
-2.894e-05,1.210456059778257,-0.3060200818919842
-2.891999999999999e-05,1.229614342770911,-0.3006937360229366
-2.889999999999999e-05,1.249763571435606,-0.2960331833875173
-2.888e-05,1.26859153920424,-0.2903739409016568
-2.886e-05,1.289071083092938,-0.2857133882662401
-2.883999999999999e-05,1.308229366085591,-0.2797212491635615
-2.881999999999999e-05,1.325736072958196,-0.2740620066776963
-2.88e-05,1.343903410278808,-0.2694014540422817
-2.878e-05,1.36273137804745,-0.2634093149396031
-2.876e-05,1.381559345816092,-0.25775007245374
-2.873999999999999e-05,1.400056998360731,-0.2520908299678744
-2.872e-05,1.419215281353367,-0.2467644840988316
-2.87e-05,1.434740096881905,-0.2407723449961506
-2.868e-05,1.450925542858457,-0.2351131025102875
-2.865999999999999e-05,1.471074771523144,-0.2297867566412399
-2.864e-05,1.489242108843755,-0.223794617538564
-2.862e-05,1.505097239596304,-0.2184682716695136
-2.86e-05,1.521282685572856,-0.2121432359500195
-2.857999999999999e-05,1.538459077221442,-0.2068168900809719
-2.855999999999999e-05,1.555305153646023,-0.2011576475951059
-2.854e-05,1.571160284398557,-0.1948326118756147
-2.852e-05,1.586354784703075,-0.1868430930720432
-2.849999999999999e-05,1.598576447991492,-0.1818496438198111
-2.847999999999999e-05,1.614101263520029,-0.1768561945675765
-2.846e-05,1.630947339944596,-0.1715298486985313
-2.844e-05,1.645811525025102,-0.1668692960631146
-2.842e-05,1.658693818761542,-0.1588797772595431
-2.839999999999999e-05,1.673558003842054,-0.1528876381568612
-2.838e-05,1.685449351906449,-0.1455639125869274
-2.836e-05,1.701965113107017,-0.1402375667178764
-2.834e-05,1.715177722067468,-0.1335796343815668
-2.831999999999999e-05,1.728720646251929,-0.1285861851293347
-2.83e-05,1.741602939988363,-0.1215953561762128
-2.828e-05,1.751512396708707,-0.1156032170735311
-2.826e-05,1.764394690445146,-0.1096110779708525
-2.823999999999999e-05,1.776616353733563,-0.1032860422513584
-2.822e-05,1.786525810453896,-0.09662810991505186
-2.82e-05,1.79940810419034,-0.09063597081237024
-2.818e-05,1.808326615238644,-0.08397803847606068
-2.815999999999999e-05,1.819887648079038,-0.07732010613975113
-2.813999999999999e-05,1.830788050471415,-0.06999638056980896
-2.812e-05,1.842679398535815,-0.06633451778484037
-2.81e-05,1.851928224808131,-0.05867789559808439
-2.808e-05,1.860516420632423,-0.05268575649540579
-2.805999999999999e-05,1.870095562128755,-0.04735941062635467
-2.804e-05,1.880665649297106,-0.03970278843960565
-2.802e-05,1.889914475569426,-0.03204616625284618
-2.8e-05,1.896520780049651,-0.02671982038379854
-2.797999999999999e-05,1.903787714977903,-0.02006188804748642
-2.796e-05,1.912706226026199,-0.01440264556162845
-2.794e-05,1.919312530506428,-0.008743403075762756
-2.792e-05,1.927900726330721,-0.001752574122637726
-2.789999999999999e-05,1.934507030810946,0.005904048064118257
-2.788e-05,1.939131443947102,0.01089749731634815
-2.786e-05,1.946068063651341,0.01921991273673736
-2.784e-05,1.953334998579588,0.02621074168986239
-2.781999999999999e-05,1.959941303059814,0.03153708755891003
-2.779999999999999e-05,1.96654760754004,0.03819501989522185
-2.778e-05,1.968529498884106,0.04318846914745175
-2.776e-05,1.973484227244275,0.05084509133420773
-2.774e-05,1.977117694708399,0.05650433382007085
-2.771999999999999e-05,1.983063368740603,0.06382805939001422
-2.77e-05,1.984714944860658,0.07015309510950256
-2.768e-05,1.988678727548794,0.07547944097855307
-2.766e-05,1.991321249340884,0.08213737331486262
-2.763999999999999e-05,1.995615347253031,0.08812951241754409
-2.762e-05,1.997927553821108,0.09445454813703241
-2.76e-05,2.000570075613199,0.09944799738926745
-2.758e-05,2.000900390837211,0.1074375161928389
-2.755999999999999e-05,2.001561021285233,0.1134296552955175
-2.754e-05,2.004864173525344,0.1194217943981934
-2.752e-05,2.006846064869413,0.1264126233513211
-2.75e-05,2.006185434421391,0.1317389692203688
-2.747999999999999e-05,2.006185434421391,0.1377311083230474
-2.745999999999999e-05,2.006185434421391,0.144721937276175
-2.744e-05,2.006185434421391,0.1503811797620355
-2.742e-05,2.004533858301334,0.1567062154815296
-2.74e-05,2.005194488749357,0.1613667681169463
-2.737999999999999e-05,2.002882282181278,0.1670260106028124
-2.736e-05,2.002882282181278,0.1736839429391159
-2.734e-05,1.999248814717154,0.180674771892244
-2.732e-05,1.99825786904512,0.1860011177612916
-2.729999999999999e-05,1.992972825460939,0.1919932568639731
-2.728e-05,1.991321249340884,0.1983182925834614
-2.726e-05,1.987027151428737,0.2043104316861429
-2.724e-05,1.984384629636647,0.2096367775551905
-2.721999999999999e-05,1.981081477396535,0.2156289166578691
-2.72e-05,1.976457064260379,0.221621055760545
-2.718e-05,1.972823596796253,0.2272802982464108
-2.716e-05,1.967208237988062,0.2339382305827204
-2.713999999999999e-05,1.962914140075915,0.2395974730685835
-2.711999999999999e-05,1.957959411715743,0.244923818937633
-2.71e-05,1.95102279201151,0.2489185783394169
-2.708e-05,1.945077117979307,0.2562423039093574
-2.706e-05,1.938801128723093,0.2602370633111431
-2.703999999999999e-05,1.933185769914898,0.2658963057970091
-2.702e-05,1.926249150210668,0.2722213415164974
-2.7e-05,1.919312530506428,0.2775476873855479
-2.698e-05,1.90940307378609,0.2818753434041492
-2.695999999999999e-05,1.902796769305862,0.2878674825068299
-2.694e-05,1.895860149601632,0.2925280351422423
-2.692e-05,1.886611323329313,0.2971885877776611
-2.69e-05,1.87802312750502,0.3031807268803397
-2.687999999999999e-05,1.869434931680727,0.3085070727493873
-2.686e-05,1.859195159736383,0.3128347287679866
-2.684e-05,1.849946333464063,0.3181610746370362
-2.682e-05,1.840697507191748,0.3234874205060838
-2.679999999999999e-05,1.830127420023387,0.3274821799078695
-2.677999999999999e-05,1.820878593751067,0.3318098359264732
-2.676e-05,1.809317560910678,0.3371361817955184
-2.674e-05,1.796435267174238,0.3427954242813815
-2.671999999999999e-05,1.786195495229889,0.3474559769167982
-2.669999999999999e-05,1.773643516717456,0.3521165295522166
-2.668e-05,1.763073429549101,0.3557783923371852
-2.666e-05,1.750191135812661,0.3611047382062328
-2.664e-05,1.738299787748256,0.366098187458465
-2.661999999999999e-05,1.725417494011811,0.3694271536266223
-2.66e-05,1.712204885051372,0.3750863961124803
-2.658e-05,1.699652906538938,0.3777495690470067
-2.656e-05,1.685779667130465,0.3820772250656079
-2.653999999999999e-05,1.670915482049958,0.3864048810842091
-2.652e-05,1.65968476443358,0.390399640485993
-2.65e-05,1.643829633681035,0.3933957100373341
-2.648e-05,1.629956394272562,0.3977233660559353
-2.645999999999999e-05,1.612449687399965,0.402383918691352
-2.644e-05,1.598246132767487,0.4057128848595053
-2.642e-05,1.584372893359007,0.409374747644477
-2.64e-05,1.568187447382456,0.4147010935135247
-2.637999999999999e-05,1.552992947077937,0.417697163064864
-2.635999999999999e-05,1.534164979309288,0.422024819083466
-2.634e-05,1.518640163780766,0.4236893021675426
-2.632e-05,1.504436609148282,0.4283498548029593
-2.63e-05,1.486929902275685,0.4303472345038521
-2.627999999999999e-05,1.468762564955058,0.43500778713927
-2.626e-05,1.453237749426543,0.4376709600737914
-2.624e-05,1.434079466433883,0.4403341330083165
-2.622e-05,1.417894020457331,0.4436630991764712
-2.619999999999999e-05,1.399066052688689,0.447657858578257
-2.618e-05,1.380568400144066,0.4499881348959642
-2.616e-05,1.361410117151405,0.4526513078304891
-2.614e-05,1.342251834158751,0.4549815841481974
-2.611999999999999e-05,1.324745127286154,0.4583105503163523
-2.61e-05,1.305256529069499,0.4606408266340595
-2.608e-05,1.286098246076837,0.4629711029517689
-2.606e-05,1.266609647860172,0.4663000691199237
-2.603999999999999e-05,1.246130103971474,0.4682974488208166
-2.601999999999999e-05,1.227632451426834,0.4712935183721567
-2.6e-05,1.207152907538145,0.4729580014562332
-2.598e-05,1.186673363649446,0.4752882777739416
-2.596e-05,1.165863504536737,0.4779514507084654
-2.593999999999999e-05,1.146044591096052,0.4796159337925437
-2.592e-05,1.12490441675935,0.4816133134934348
-2.59e-05,1.103764242422619,0.4829448999606976
-2.588e-05,1.08295438330991,0.4842764864279595
-2.585999999999999e-05,1.059832317629112,0.4866067627456686
-2.584e-05,1.039683088964443,0.4882712458297445
-2.582e-05,1.018212599403702,0.4902686255306381
-2.58e-05,0.9980633707390151,0.4912673153810845
-2.577999999999999e-05,0.9752716202822379,0.4929317984651619
-2.576e-05,0.9518192393774489,0.4935975916987926
-2.574e-05,0.9306790650407174,0.4962607646333167
-2.572e-05,0.9088782602559741,0.4969265578669476
-2.569999999999999e-05,0.8860865097991969,0.4975923511005786
-2.567999999999999e-05,0.8632947593424092,0.4985910409510256
-2.566e-05,0.8401726936616313,0.4999226274182869
-2.564e-05,0.8157293670847978,0.5012542138855488
-2.562e-05,0.7932679318520318,0.5012542138855488
-2.559999999999999e-05,0.7704761813952445,0.5029186969696261
-2.558e-05,0.748014746162499,0.5025858003528109
-2.556e-05,0.7242320500336779,0.5035844902032571
-2.554e-05,0.7011099843528894,0.5035844902032571
-2.551999999999999e-05,0.6773272882240674,0.5039173868200728
-2.55e-05,0.652883961647256,0.504250283436888
-2.548e-05,0.6277800046223889,0.5052489732873345
-2.546e-05,0.6066398302856681,0.5059147665209656
-2.543999999999999e-05,0.5812055580368009,0.5059147665209656
-2.542e-05,0.5551106553399229,0.5055818699041501
-2.54e-05,0.5326492201071451,0.5052489732873345
-2.538e-05,0.5062240021862441,0.5052489732873345
-2.535999999999999e-05,0.4824413060574331,0.5052489732873345
-2.533999999999999e-05,0.4576676642565768,0.5049160766705191
-2.532e-05,0.432233392007721,0.5049160766705191
-2.53e-05,0.4077900654308876,0.5029186969696262
-2.528e-05,0.3849983149741104,0.5029186969696262
-2.525999999999999e-05,0.3605549883972654,0.5022529037359954
-2.524e-05,0.3351207161484212,0.5025858003528106
-2.522e-05,0.3100167591235536,0.5015871105023643
-2.52e-05,0.2852431173227089,0.5009213172687333
-2.517999999999999e-05,0.2584875841777853,0.4992568341846557
-2.516e-05,0.2337139423769631,0.4985910409510253
-2.514e-05,0.2086099853520958,0.4969265578669476
-2.512e-05,0.1838363435512511,0.4955949713996857
-2.509999999999999e-05,0.1570808104063388,0.4949291781660548
-2.508e-05,0.1319768533814941,0.4929317984651628
-2.506e-05,0.1081941572526718,0.4916002119979
-2.504e-05,0.08441146112386083,0.4906015221474536
-2.501999999999999e-05,0.05765592797894851,0.4882712458297452
-2.499999999999999e-05,0.03222165573006967,0.4872725559792976
-2.498e-05,0.006787383481213959,0.484609383044775
-2.496e-05,-0.01798625831963079,0.4829448999606976
-2.493999999999999e-05,-0.04309021534448679,0.4812804168766202
-2.491999999999999e-05,-0.0711670093854553,0.479948830409357
-2.49e-05,-0.09561033596226655,0.4772856574748357
-2.488e-05,-0.1207142929871337,0.4759540710075725
-2.486e-05,-0.1448273043399559,0.4729580014562332
-2.483999999999999e-05,-0.1692706309168018,0.4706277251385241
-2.482e-05,-0.1966867945097118,0.4689632420544483
-2.48e-05,-0.222781697206614,0.4663000691199237
-2.478e-05,-0.24788565423147,0.462305309718138
-2.475999999999999e-05,-0.2719986655842922,0.460973723250876
-2.474e-05,-0.2957813617130924,0.4583105503163535
-2.472e-05,-0.3202246882899367,0.4563131706154594
-2.47e-05,-0.3463195909868265,0.4526513078304891
-2.467999999999999e-05,-0.372084178459705,0.4503210315127808
-2.465999999999999e-05,-0.3948759289164936,0.4476578585782556
-2.464e-05,-0.4199798859413382,0.4446617890269177
-2.462e-05,-0.4450838429661942,0.4413328228587629
-2.459999999999999e-05,-0.4701877999910502,0.4373380634569772
-2.457999999999999e-05,-0.4949614417919056,0.4343419939056368
-2.456e-05,-0.5184138226966947,0.4320117175879295
-2.454e-05,-0.5428571492735281,0.4273511649525129
-2.452e-05,-0.5673004758503616,0.4243550954011735
